lag,correlation
-6,-0.5742400732368867
-5,-0.4119365684707985
-4,-0.11333225744647879
-3,0.2521292928473206
-2,0.6109580921915517
-1,0.8287897414844079
0,0.8395193067654554
1,0.613625971586912
2,0.22916092209599764
3,-0.176706990861704
4,-0.5616349974658794
5,-0.763454562754988
6,-0.7732270532345843
